time [s],motion,velocity,linear_damping,quadratic_damping,total_damping,abs_linear_damping,abs_quadratic_damping
0.0,0.71839255,-3.93432,15.73728,15.478873,31.216152,15.73728,15.478873
0.04486446790053833,0.5418814,-3.8959882,15.583953,15.178724,30.762676,15.583953,15.178724
0.08965738162578418,0.36908296,-3.812675,15.2507,14.53649,29.78719,15.2507,14.53649
0.13445029535103004,0.20031974,-3.7161055,14.864422,13.80944,28.673862,14.864422,13.80944
0.17931476325168205,0.03591404,-3.615145,14.46058,13.069273,27.529854,14.46058,13.069273
0.22410767697681422,-0.123811744,-3.5100338,14.040135,12.320337,26.360474,14.040135,12.320337
0.26890059070217376,-0.27853525,-3.39476,13.57904,11.524395,25.103436,13.57904,11.524395
0.3136935044274196,-0.4279341,-3.2697823,13.079129,10.691476,23.770605,13.079129,10.691476
0.35855797232795794,-0.57168597,-3.1400108,12.560043,9.859668,22.419712,12.560043,9.859668
0.4033508860533175,-0.7094684,-3.0057557,12.023023,9.034567,21.05759,12.023023,9.034567
0.44814379977844965,-0.8409591,-2.8595314,11.438126,8.17692,19.615046,11.438126,8.17692
0.49300826767910166,-0.96583563,-2.7081518,10.832607,7.3340864,18.166695,10.832607,7.3340864
0.5378011814043475,-1.0837756,-2.5519793,10.207917,6.5125985,16.720516,10.207917,6.5125985
0.5825940951295934,-1.1944568,-2.384561,9.538244,5.6861315,15.224376,9.538244,5.6861315
0.6274585630301317,-1.2975568,-2.211574,8.846296,4.89106,13.737356,8.846296,4.89106
0.6722514767554912,-1.3927531,-2.0279922,8.111969,4.1127524,12.224722,8.111969,4.1127524
0.7170443904807371,-1.4792361,-1.825777,7.303108,3.3334618,10.63657,7.303108,3.3334618
0.7619088583812754,-1.5564325,-1.6153553,6.461421,2.6093726,9.070793,6.461421,2.6093726
0.806701772106635,-1.6240797,-1.4012674,5.6050696,1.9635503,7.5686197,5.6050696,1.9635503
0.8514946858317671,-1.6819662,-1.1808087,4.7232347,1.394309,6.1175437,4.7232347,1.394309
0.8963591537324191,-1.729932,-0.95794314,3.8317726,0.91765505,4.749428,3.8317726,0.91765505
0.941152067457665,-1.7678688,-0.73434824,2.937393,0.53926736,3.4766603,2.937393,0.53926736
0.9859449811829109,-1.7957191,-0.5088729,2.0354917,0.25895166,2.2944434,2.0354917,0.25895166
1.0308094490834492,-1.8134768,-0.28385657,1.1354263,0.08057455,1.2160008,1.1354263,0.08057455
1.0756023628088087,-1.821185,-0.0609341,0.2437364,0.0037129645,0.24744937,0.2437364,0.0037129645
1.1203952765341683,-1.8189356,0.15951414,-0.6380566,-0.025444763,-0.6635013,0.6380566,0.025444763
1.1652597444347066,-1.8068677,0.37682238,-1.5072895,-0.1419951,-1.6492846,1.5072895,0.1419951
1.2100526581599524,-1.7851661,0.5894728,-2.357891,-0.34747815,-2.7053692,2.357891,0.34747815
1.2548455718850846,-1.7540593,0.7956308,-3.1825233,-0.6330284,-3.8155518,3.1825233,0.6330284
1.299710039785623,-1.7138175,0.99626976,-3.985079,-0.9925534,-4.9776325,3.985079,0.9925534
1.3445029535109825,-1.6647506,1.1900526,-4.7602105,-1.4162253,-6.176436,4.7602105,1.4162253
1.389295867236342,-1.6072056,1.3738147,-5.495259,-1.8873669,-7.3826256,5.495259,1.8873669
1.4341603351368803,-1.5415652,1.5500563,-6.2002254,-2.4026747,-8.6029,6.2002254,2.4026747
1.4789532488621262,-1.4682441,1.7176545,-6.870618,-2.950337,-9.820955,6.870618,2.950337
1.5237461625874857,-1.3876877,1.8722897,-7.4891586,-3.5054686,-10.994627,7.4891586,3.5054686
1.568610630488024,-1.3003689,2.0178082,-8.071233,-4.07155,-12.142782,8.071233,4.07155
1.6134035442131562,-1.2067865,2.1533203,-8.613281,-4.6367884,-13.25007,8.613281,4.6367884
1.6581964579385158,-1.1074619,2.2754612,-9.101845,-5.177724,-14.279569,9.101845,5.177724
1.7029893716637616,-1.0029374,2.383307,-9.533228,-5.680152,-15.21338,9.533228,5.680152
1.7478538395643,-0.89377373,2.4805207,-9.922083,-6.152983,-16.075066,9.922083,6.152983
1.7926467532896595,-0.7805472,2.5644326,-10.2577305,-6.5763144,-16.834045,10.2577305,6.5763144
1.8375112211901978,-0.66384816,2.6352975,-10.54119,-6.944793,-17.485983,10.54119,6.944793
1.8823041349154437,-0.5442782,2.6946235,-10.778494,-7.260996,-18.03949,10.778494,7.260996
1.9270970486408032,-0.4224481,2.7381895,-10.952758,-7.4976816,-18.45044,10.952758,7.4976816
1.9718899623659354,-0.29897523,2.7656987,-11.062795,-7.6490893,-18.711884,11.062795,7.6490893
2.0167544302664737,-0.17448148,2.7815392,-11.126157,-7.7369604,-18.863117,11.126157,7.7369604
2.0615473439918333,-0.04959066,2.7856572,-11.142629,-7.759886,-18.902515,11.142629,7.759886
2.106340257717079,0.07507393,2.7714882,-11.085953,-7.6811466,-18.7671,11.085953,7.6811466
2.1512047256176174,0.19889206,2.7457118,-10.982847,-7.5389333,-18.52178,10.982847,7.5389333
2.195997639342977,0.32124928,2.7085485,-10.834194,-7.336235,-18.17043,10.834194,7.336235
2.240790553068223,0.44153962,2.6536994,-10.614798,-7.0421205,-17.656918,10.614798,7.0421205
2.285655020968761,0.55916846,2.5877526,-10.35101,-6.6964636,-17.047474,10.35101,6.6964636
2.330447934694007,0.6735556,2.5112183,-10.044873,-6.306217,-16.35109,10.044873,6.306217
2.375240848419253,0.784138,2.418372,-9.673488,-5.8485227,-15.522011,9.673488,5.8485227
2.420105316319791,0.8903733,2.3154476,-9.26179,-5.3612976,-14.623088,9.26179,5.3612976
2.4648982300451507,0.9917425,2.2032504,-8.813002,-4.8543124,-13.667315,8.813002,4.8543124
2.5096911437703966,1.0877533,2.0769107,-8.307643,-4.313558,-12.621201,8.307643,4.313558
2.554555611670935,1.1779433,1.9420569,-7.7682276,-3.771585,-11.539812,7.7682276,3.771585
2.5993485253962945,1.2618828,1.7997742,-7.1990967,-3.239187,-10.438284,7.1990967,3.239187
2.6441414391214266,1.3391776,1.6462722,-6.5850887,-2.710212,-9.2953005,6.5850887,2.710212
2.6890059070220786,1.4094719,1.4863443,-5.9453773,-2.2092195,-8.154596,5.9453773,2.2092195
2.7337988207473245,1.4724509,1.32131,-5.28524,-1.7458602,-7.0311003,5.28524,1.7458602
2.7785917344725704,1.5278425,1.1486106,-4.5944424,-1.3193063,-5.9137487,4.5944424,1.3193063
2.8234562023731087,1.5754197,0.9719961,-3.8879845,-0.9447765,-4.832761,3.8879845,0.9447765
2.868249116098468,1.6150018,0.7929351,-3.1717403,-0.62874603,-3.8004863,3.1717403,0.62874603
2.913042029823714,1.6464554,0.6101797,-2.440719,-0.37231928,-2.813038,2.440719,0.37231928
2.9579064977242524,1.6696957,0.42626336,-1.7050534,-0.18170045,-1.8867539,1.7050534,0.18170045
3.002699411449612,1.6846862,0.24270114,-0.9708046,-0.058903843,-1.0297084,0.9708046,0.058903843
3.047492325174744,1.6914383,0.059441086,-0.23776434,-0.0035332427,-0.24129759,0.23776434,0.0035332427
3.0922852389001036,1.6900113,-0.12173639,0.48694557,0.01481975,0.5017653,0.48694557,0.01481975
3.137149706800642,1.6805109,-0.30043635,1.2017454,0.090261996,1.2920074,1.2017454,0.090261996
3.1819426205260015,1.6630876,-0.4752519,1.9010077,0.22586438,2.126872,1.9010077,0.22586438
3.2267355342512474,1.637935,-0.6445444,2.5781777,0.41543752,2.9936152,2.5781777,0.41543752
3.2716000021517857,1.6052876,-0.8089602,3.2358408,0.6544166,3.8902574,3.2358408,0.6544166
3.3163929158771452,1.5654174,-0.9672889,3.8691556,0.93564785,4.8048034,3.8691556,0.93564785
3.3611858296022774,1.5186322,-1.1168638,4.4674554,1.2473849,5.7148404,4.4674554,1.2473849
3.4060502975029294,1.465272,-1.259651,5.038604,1.5867205,6.6253242,5.038604,1.5867205
3.4508432112281753,1.4057052,-1.3946992,5.578797,1.9451859,7.523983,5.578797,1.9451859
3.495636124953421,1.3403267,-1.5184885,6.073954,2.3058074,8.379762,6.073954,2.3058074
3.5405005928539595,1.2695531,-1.634159,6.536636,2.6704755,9.207111,6.536636,2.6704755
3.585293506579319,1.1938204,-1.7410424,6.9641695,3.0312285,9.995398,6.9641695,3.0312285
3.630086420304565,1.1135803,-1.8349481,7.3397923,3.3670344,10.706827,7.3397923,3.3670344
3.674950888205103,1.0292975,-1.9199766,7.6799064,3.68631,11.366217,7.6799064,3.68631
3.7197438019304627,0.9414462,-1.9957361,7.9829445,3.9829626,11.965907,7.9829445,3.9829626
3.764536715655595,0.8505078,-2.057544,8.230176,4.233487,12.463663,8.230176,4.233487
3.809401183556247,0.75696826,-2.110208,8.440832,4.452978,12.89381,8.440832,4.452978
3.8541940972814928,0.6613157,-2.1535778,8.614311,4.6378975,13.252209,8.614311,4.6378975
3.8989870110067386,0.5640382,-2.1826644,8.730658,4.764024,13.494681,8.730658,4.764024
3.943851478907277,0.46562213,-2.2027118,8.810847,4.851939,13.6627865,8.810847,4.851939
3.9886443926326365,0.36655015,-2.2137682,8.855073,4.9007697,13.755842,8.855073,4.9007697
4.033437306357882,0.26729986,-2.210732,8.842928,4.887336,13.730264,8.842928,4.887336
4.078301774258421,0.16834243,-2.1990135,8.796054,4.8356605,13.631714,8.796054,4.8356605
4.12309468798378,0.070141114,-2.1788282,8.715313,4.7472925,13.462605,8.715313,4.7472925
4.167887601708912,-0.026849708,-2.1451643,8.580657,4.60173,13.182386,8.580657,4.60173
4.212752069609451,-0.12218581,-2.103356,8.413424,4.424106,12.83753,8.413424,4.424106
4.25754498333481,-0.21543418,-2.0537655,8.215062,4.2179527,12.433015,8.215062,4.2179527
4.302337897060056,-0.3061741,-1.9916834,7.9667335,3.9668026,11.933537,7.9667335,3.9668026
4.347202364960594,-0.3939984,-1.9221544,7.6886177,3.6946776,11.383295,7.6886177,3.6946776
4.391995278685954,-0.4785145,-1.8456854,7.3827415,3.4065545,10.789296,7.3827415,3.4065545
4.4367881924112,-0.55934566,-1.7594082,7.037633,3.0955174,10.13315,7.037633,3.0955174
4.481581106136446,-0.63613254,-1.6640643,6.656257,2.76911,9.425367,6.656257,2.76911
4.526445574037098,-0.7085341,-1.562499,6.249996,2.4414034,8.6914,6.249996,2.4414034
4.57123848776223,-0.77622944,-1.4543478,5.8173914,2.1151276,7.932519,5.8173914,2.1151276
4.616102955662768,-0.838919,-1.3394139,5.3576555,1.7940296,7.151685,5.3576555,1.7940296
4.660895869388128,-0.89632607,-1.2198304,4.8793216,1.4879862,6.3673077,4.8793216,1.4879862
4.705688783113374,-0.9481985,-1.0937393,4.374957,1.1962656,5.571223,4.374957,1.1962656
4.750481696838733,-0.9943096,-0.96223193,3.8489277,0.92589027,4.774818,3.8489277,0.92589027
4.795346164739271,-1.0344601,-0.82714623,3.308585,0.6841709,3.992756,3.308585,0.6841709
4.840139078464631,-1.0684791,-0.6894514,2.7578056,0.47534323,3.2331488,2.7578056,0.47534323
4.884931992189763,-1.0962251,-0.54784954,2.1913981,0.3001391,2.4915373,2.1913981,0.3001391
4.9297964600903015,-1.1175876,-0.40433398,1.6173359,0.16348596,1.7808219,1.6173359,0.16348596
4.974589373815547,-1.1324869,-0.25995594,1.0398238,0.067577094,1.1074009,1.0398238,0.067577094
5.019382287540907,-1.1408759,-0.114472024,0.4578881,0.013103845,0.47099194,0.4578881,0.013103845
5.064246755441445,-1.1427398,0.031122385,-0.12448954,-0.00096860284,-0.12545814,0.12448954,0.00096860284
5.109039669166805,-1.138096,0.17574841,-0.70299363,-0.030887503,-0.7338811,0.70299363,0.030887503
5.153832582892051,-1.1269952,0.31861287,-1.2744515,-0.10151416,-1.3759656,1.2744515,0.10151416
5.198697050792589,-1.1095198,0.4592794,-1.8371176,-0.21093756,-2.0480552,1.8371176,0.21093756
5.243561518693127,-1.0857846,0.59836185,-2.3934474,-0.3580369,-2.7514844,2.3934474,0.3580369
5.288282878243081,-1.0559349,0.7324742,-2.9298968,-0.53651845,-3.4664154,2.9298968,0.53651845
5.333147346143619,-1.0201466,0.8623907,-3.4495628,-0.74371773,-4.1932807,3.4495628,0.74371773
5.3779402598689785,-0.97862446,0.98838603,-3.9535441,-0.97690696,-4.930451,3.9535441,0.97690696
5.422733173594224,-0.9316012,1.1073297,-4.429319,-1.2261791,-5.655498,4.429319,1.2261791
5.467597641494763,-0.87933594,1.2212788,-4.885115,-1.4915218,-6.376637,4.885115,1.4915218
5.512390555220122,-0.8221126,1.3294232,-5.3176928,-1.767366,-7.0850587,5.3176928,1.767366
5.557183468945368,-0.76023847,1.4283667,-5.7134666,-2.0402312,-7.753698,5.7134666,2.0402312
5.602047936845906,-0.69404227,1.5210387,-6.0841546,-2.3135586,-8.397713,6.0841546,2.3135586
5.646840850571152,-0.62387264,1.6067935,-6.427174,-2.5817854,-9.00896,6.427174,2.5817854
5.691633764296398,-0.55009633,1.6816425,-6.72657,-2.8279216,-9.554492,6.72657,2.8279216
5.736498232196936,-0.473096,1.7492387,-6.996955,-3.0598361,-10.056791,6.996955,3.0598361
5.781291145922296,-0.39326888,1.8091205,-7.236482,-3.272917,-10.509399,7.236482,3.272917
5.826084059647542,-0.31102446,1.8583977,-7.433591,-3.4536421,-10.887233,7.433591,3.4536421
5.870876973372901,-0.22678278,1.8966606,-7.5866423,-3.5973213,-11.183964,7.5866423,3.5973213
5.91574144127344,-0.14097255,1.926844,-7.707376,-3.7127278,-11.420104,7.707376,3.7127278
5.960534354998572,-0.054029025,1.9471848,-7.788739,-3.7915287,-11.580268,7.788739,3.7915287
6.005398822899224,0.033607826,1.9577312,-7.830925,-3.8327117,-11.663637,7.830925,3.8327117
6.05019173662447,0.12149541,1.9599388,-7.839755,-3.8413599,-11.681115,7.839755,3.8413599
6.094984650349716,0.20919056,1.9507127,-7.8028507,-3.80528,-11.60813,7.8028507,3.80528
6.139777564075075,0.29625162,1.9301478,-7.720591,-3.7254703,-11.446061,7.720591,3.7254703
6.1846420319756135,0.38224062,1.9013674,-7.6054697,-3.6151981,-11.220668,7.6054697,3.6151981
6.229434945700859,0.46672544,1.8645961,-7.4583845,-3.4767187,-10.935103,7.4583845,3.4767187
6.274227859426105,0.549282,1.8155254,-7.2621017,-3.2961326,-10.558234,7.2621017,3.2961326
6.319092327326757,0.62949675,1.7587208,-7.034883,-3.0930986,-10.127981,7.034883,3.0930986
6.363885241051889,0.7069685,1.6946238,-6.7784953,-2.8717499,-9.650246,6.7784953,2.8717499
6.408678154777249,0.78131104,1.6194181,-6.4776726,-2.6225152,-9.100187,6.4776726,2.6225152
6.453542622677787,0.8521555,1.5373534,-6.1494136,-2.3634555,-8.512869,6.1494136,2.3634555
6.498335536403033,0.9191521,1.4490805,-5.796322,-2.0998342,-7.8961563,5.796322,2.0998342
6.543128450128393,0.9819726,1.3514506,-5.4058022,-1.8264186,-7.2322206,5.4058022,1.8264186
6.587992918028931,1.0403123,1.2482152,-4.992861,-1.5580412,-6.550902,4.992861,1.5580412
6.632785831754177,1.0938917,1.140207,-4.560828,-1.3000721,-5.8609004,4.560828,1.3000721
6.677578745479423,1.1424587,1.0250823,-4.1003294,-1.0507938,-5.151123,4.1003294,1.0507938
6.722443213380075,1.1857895,0.9059255,-3.623702,-0.82070106,-4.444403,3.623702,0.82070106
6.767236127105207,1.2236902,0.78370416,-3.1348166,-0.6141922,-3.749009,3.1348166,0.6141922
6.812029040830566,1.2559983,0.656963,-2.627852,-0.43160036,-3.0594523,2.627852,0.43160036
6.856893508731105,1.2825825,0.52797395,-2.1118958,-0.2787565,-2.3906522,2.1118958,0.2787565
6.901686422456464,1.3033442,0.3977736,-1.5910944,-0.15822384,-1.7493182,1.5910944,0.15822384
6.94647933618171,1.3182174,0.26583084,-1.0633234,-0.07066604,-1.1339895,1.0633234,0.07066604
6.991343804082248,1.3271685,0.13349651,-0.53398603,-0.017821318,-0.55180734,0.53398603,0.017821318
7.036136717807608,1.3301958,0.001801729,-0.007206916,-3.2462274e-06,-0.007210162,0.007206916,3.2462274e-06
7.08092963153274,1.3273299,-0.12887509,0.51550037,0.01660879,0.53210914,0.51550037,0.01660879
7.125794099433392,1.3186319,-0.2581651,1.0326604,0.06664921,1.0993096,1.0326604,0.06664921
7.170587013158638,1.3041927,-0.38510826,1.540433,0.14830837,1.6887414,1.540433,0.14830837
7.215379926883884,1.2841316,-0.5084734,2.0338936,0.2585452,2.2924387,2.0338936,0.2585452
7.260244394784422,1.2585956,-0.6288781,2.5155125,0.3954877,2.9110003,2.5155125,0.3954877
7.305037308509782,1.2277566,-0.74547935,2.9819174,0.55573946,3.5376568,2.9819174,0.55573946
7.349830222235028,1.1918112,-0.85627556,3.4251022,0.7332078,4.15831,3.4251022,0.7332078
7.394694690135566,1.1509775,-0.9628235,3.851294,0.92702913,4.778323,3.851294,0.92702913
7.4394876038609254,1.1054945,-1.0644265,4.257706,1.1330038,5.39071,4.257706,1.1330038
7.484280517586058,1.05562,-1.159406,4.637624,1.3442222,5.981846,4.637624,1.3442222
7.529073431311417,1.0016282,-1.2470253,4.988101,1.555072,6.543173,4.988101,1.555072
7.5739378992119555,0.943809,-1.3291519,5.3166075,1.7666447,7.083252,5.3166075,1.7666447
7.618730812937201,0.88246566,-1.405306,5.621224,1.9748849,7.596109,5.621224,1.9748849
7.663523726662561,0.8179135,-1.4720854,5.8883414,2.1670353,8.055377,5.8883414,2.1670353
7.708388194563099,0.7504779,-1.5327704,6.1310816,2.349385,8.480467,6.1310816,2.349385
7.753181108288345,0.68049353,-1.5870324,6.3481297,2.518672,8.866802,6.3481297,2.518672
7.797974022013591,0.6083023,-1.6310798,6.524319,2.6604214,9.18474,6.524319,2.6604214
7.842838489914129,0.5342524,-1.6686637,6.674655,2.7844386,9.459093,6.674655,2.7844386
7.887631403639375,0.45869687,-1.6995996,6.7983985,2.888639,9.687037,6.7983985,2.888639
7.932424317364735,0.38199237,-1.7198571,6.8794284,2.9579084,9.837337,6.8794284,2.9579084
7.977288785265273,0.30449793,-1.733483,6.933932,3.0049632,9.938895,6.933932,3.0049632
8.022081698990519,0.2265737,-1.7404331,6.9617324,3.0291073,9.99084,6.9617324,3.0291073
8.066874612715878,0.14857979,-1.7366056,6.9464226,3.015799,9.962221,6.9464226,3.015799
8.111739080616417,0.07087485,-1.7261716,6.9046865,2.9796684,9.884355,6.9046865,2.9796684
8.156531994341663,-0.0061850697,-1.7092302,6.8369207,2.9214678,9.7583885,6.8369207,2.9214678
8.201324908066908,-0.08224795,-1.6817847,6.727139,2.8284,9.555539,6.727139,2.8284
8.246189375967447,-0.15696715,-1.6479672,6.591869,2.715796,9.307665,6.591869,2.715796
8.290982289692693,-0.23000288,-1.6080272,6.432109,2.5857515,9.01786,6.432109,2.5857515
8.335775203418052,-0.3010236,-1.5582503,6.233001,2.428144,8.661145,6.233001,2.428144
8.38063967131859,-0.3697076,-1.5025742,6.010297,2.2577293,8.268026,6.010297,2.2577293
8.425432585043836,-0.43574452,-1.4414015,5.765606,2.0776381,7.843244,5.765606,2.0776381
8.470225498769196,-0.49883676,-1.3714648,5.4858594,1.8809159,7.3667755,5.4858594,1.8809159
8.515089966669734,-0.55870116,-1.2963583,5.1854334,1.680545,6.8659782,5.1854334,1.680545
8.559882880394866,-0.6150703,-1.2166308,4.8665233,1.4801905,6.346714,4.8665233,1.4801905
8.604675794120226,-0.66769403,-1.1296012,4.518405,1.275999,5.794404,4.518405,1.275999
8.649540262020764,-0.7163409,-1.0383816,4.1535263,1.0782363,5.231763,4.1535263,1.0782363
8.69433317574601,-0.76079917,-0.9436449,3.7745795,0.8904657,4.6650453,3.7745795,0.8904657
8.73912608947137,-0.8008781,-0.8434007,3.3736029,0.71132475,4.0849276,3.3736029,0.71132475
8.783990557371908,-0.8364089,-0.7401514,2.9606056,0.5478241,3.5084298,2.9606056,0.5478241
8.828783471097267,-0.86724555,-0.63465834,2.5386333,0.4027912,2.9414246,2.5386333,0.4027912
8.8735763848224,-0.8932653,-0.52602166,2.1040866,0.2766988,2.3807855,2.1040866,0.2766988
8.91836929854776,-0.91436964,-0.41521066,1.6608427,0.1723999,1.8332425,1.6608427,0.1723999
8.963233766448298,-0.930484,-0.3031633,1.2126532,0.09190798,1.3045611,1.2126532,0.09190798
9.008026680173543,-0.9415585,-0.19069384,0.76277536,0.03636414,0.7991395,0.76277536,0.03636414
9.052819593898903,-0.94756746,-0.077621154,0.31048462,0.006025044,0.31650966,0.31048462,0.006025044
9.097684061799441,-0.9485097,0.03533114,-0.14132456,-0.0012482895,-0.14257285,0.14132456,0.0012482895
9.142476975524687,-0.9444078,0.1473632,-0.5894528,-0.021715913,-0.61116874,0.5894528,0.021715913
9.187269889250047,-0.93530804,0.2578754,-1.0315017,-0.066499725,-1.0980014,1.0315017,0.066499725
9.232134357150585,-0.92127955,0.36697367,-1.4678947,-0.13466968,-1.6025643,1.4678947,0.13466968
9.276927270875717,-0.9024139,0.47390527,-1.8956211,-0.2245862,-2.1202073,1.8956211,0.2245862
9.321720184601077,-0.87882435,0.5773278,-2.3093112,-0.3333074,-2.6426187,2.3093112,0.3333074
9.366584652501615,-0.85064495,0.67815596,-2.7126238,-0.4598955,-3.1725192,2.7126238,0.4598955
9.41137756622686,-0.8180298,0.7757108,-3.1028433,-0.6017273,-3.7045705,3.1028433,0.6017273
9.45617047995222,-0.78115225,0.8679667,-3.4718668,-0.75336623,-4.225233,3.4718668,0.75336623
9.501034947852759,-0.7402038,0.9565876,-3.8263505,-0.91505986,-4.7414103,3.8263505,0.91505986
9.545827861578005,-0.6953934,1.0409842,-4.1639366,-1.083648,-5.2475843,4.1639366,1.083648
9.59062077530325,-0.6469464,1.118532,-4.474128,-1.2511137,-5.7252417,4.474128,1.2511137
9.635485243203902,-0.59510344,1.1915549,-4.7662196,-1.4198031,-6.1860228,4.7662196,1.4198031
9.680278156929035,-0.5401198,1.2595649,-5.0382595,-1.5865036,-6.624763,5.0382595,1.5865036
9.725071070654394,-0.48226428,1.3194462,-5.277785,-1.7409383,-7.018723,5.277785,1.7409383
9.769935538554932,-0.42181775,1.3740703,-5.496281,-1.8880692,-7.3843503,5.496281,1.8880692
9.814728452280178,-0.35907257,1.4230658,-5.692263,-2.0251162,-7.7173796,5.692263,2.0251162
