time [s],motion,velocity,linear_damping,quadratic_damping,total_damping,abs_linear_damping,abs_quadratic_damping
0.0,-3.2862952,8.155504,-2650.5388,-6651.225,-9301.764,2650.5388,6651.225
0.044828690812948935,-2.9206946,8.118792,-2638.6072,-6591.4775,-9230.085,2638.6072,6591.4775
0.08965738162584103,-2.5583856,8.0435095,-2614.1406,-6469.8047,-9083.945,2614.1406,6469.8047
0.13445029535114372,-2.1998196,7.9550214,-2585.3818,-6328.2363,-8913.618,2585.3818,6328.2363
0.17927898616409266,-1.8454474,7.853222,-2552.297,-6167.3096,-8719.606,2552.297,6167.3096
0.22410767697698475,-1.4957203,7.7476215,-2517.977,-6002.564,-8520.541,2517.977,6002.564
0.2689005907022306,-1.1510893,7.6289544,-2479.4102,-5820.0947,-8299.505,2479.4102,5820.0947
0.31372928151517954,-0.81200576,7.4970803,-2436.551,-5620.621,-8057.172,2436.551,5620.621
0.35855797232807163,-0.4789207,7.361121,-2392.3645,-5418.6104,-7810.9746,2392.3645,5418.6104
0.4033508860533175,-0.15228534,7.212275,-2343.9895,-5201.691,-7545.6807,2343.9895,5201.691
0.4481795768662664,0.16744924,7.0531154,-2292.2625,-4974.6436,-7266.9062,2292.2625,4974.6436
0.4929724905915691,0.47983184,6.884149,-2237.3484,-4739.151,-6976.499,2237.3484,4739.151
0.537801181404518,0.7844113,6.7022333,-2178.2258,-4491.993,-6670.2188,2178.2258,4491.993
0.5826298722174101,1.0807365,6.5155973,-2117.569,-4245.301,-6362.87,2117.569,4245.301
0.627422785942656,1.3683563,6.316452,-2052.847,-3989.7566,-6042.6035,2052.847,3989.7566
0.6722514767556049,1.6468196,6.1034784,-1983.6305,-3725.2449,-5708.8755,1983.6305,3725.2449
0.7170443904808508,1.9153676,5.87529,-1909.4692,-3451.903,-5361.372,1909.4692,3451.903
0.7618730812937429,2.173364,5.6329403,-1830.7056,-3173.0015,-5003.707,1830.7056,3173.0015
0.8067017721066918,2.4204023,5.386404,-1750.5813,-2901.3347,-4651.916,1750.5813,2901.3347
0.8514946858319945,2.656111,5.1300116,-1667.2538,-2631.702,-4298.9556,1667.2538,2631.702
0.8963233766448866,2.8801527,4.8642135,-1580.8694,-2366.0574,-3946.9268,1580.8694,2366.0574
0.9411520674578355,3.0922236,4.5958776,-1493.6603,-2112.2092,-3605.8696,1493.6603,2112.2092
0.9859449811830814,3.2920523,4.3202295,-1404.0746,-1866.4384,-3270.513,1404.0746,1866.4384
1.0307736719959735,3.4793994,4.03763,-1312.2297,-1630.2456,-2942.4753,1312.2297,1630.2456
1.0756023628089224,3.6540556,3.7538984,-1220.017,-1409.1753,-2629.1924,1220.017,1409.1753
1.1203952765341683,3.81584,3.4651666,-1126.1791,-1200.7379,-2326.917,1126.1791,1200.7379
1.1652239673470604,3.964599,3.1728187,-1031.166,-1006.6778,-2037.8438,1031.166,1006.6778
1.210016881072363,4.1002035,2.8783374,-935.45966,-828.4826,-1763.9423,935.45966,828.4826
1.254845571885312,4.2225494,2.5803728,-838.62115,-665.8324,-1504.4536,838.62115,665.8324
1.2996742626981472,4.331553,2.2828326,-741.9206,-521.1325,-1263.0531,741.9206,521.1325
1.34446717642345,4.427151,1.9834232,-644.61255,-393.39676,-1038.0093,644.61255,393.39676
1.3892958672363989,4.5092998,1.6821951,-546.7134,-282.97803,-829.6914,546.7134,282.97803
1.4341245580493478,4.5779724,1.3819171,-449.12308,-190.9695,-640.0926,449.12308,190.9695
1.4789174717745368,4.63316,1.0812955,-351.42102,-116.91999,-468.341,351.42102,116.91999
1.5237461625874857,4.674869,0.7801298,-253.54218,-60.86025,-314.40244,253.54218,60.86025
1.568610630488024,4.7031217,0.4804086,-156.1328,-23.079243,-179.21204,156.1328,23.079243
1.6133677671257374,4.717956,0.18224242,-59.228786,-3.3212302,-62.55002,59.228786,3.3212302
1.6581964579385726,4.7194266,-0.115627825,37.579044,1.3369794,38.916023,37.579044,1.3369794
1.7029893716638753,4.707604,-0.41106603,133.59645,16.897528,150.49397,133.59645,16.897528
1.7478180624768243,4.6825757,-0.70441103,228.93358,49.619488,278.55307,228.93358,49.619488
1.7926467532897163,4.6444483,-0.9957417,323.61606,99.15016,422.76624,323.61606,99.15016
1.8374396670149622,4.593346,-1.2834394,417.1178,164.72166,581.8395,417.1178,164.72166
1.8822683578279111,4.529414,-1.568125,509.64062,245.9016,755.54224,509.64062,245.9016
1.9270612715532138,4.4528184,-1.8484117,600.7338,341.66257,942.39636,600.7338,341.66257
1.971889962366106,4.3637466,-2.123737,690.21454,451.0259,1141.2405,690.21454,451.0259
2.016718653178998,4.2624097,-2.3958073,778.6374,573.98926,1352.6267,778.6374,573.98926
2.0615115669043007,4.14904,-2.6612244,864.89795,708.2115,1573.1094,864.89795,708.2115
2.106340257717193,4.023897,-2.9210484,949.34076,853.2523,1802.593,949.34076,853.2523
2.1511331714424387,3.8872604,-3.173935,1031.5288,1007.3863,2038.915,1031.5288,1007.3863
2.1959618622553876,3.7394352,-3.4187021,1111.0782,1168.7524,2279.8306,1111.0782,1168.7524
2.2407905530682797,3.5807486,-3.6586478,1189.0605,1338.5703,2527.6309,1189.0605,1338.5703
2.285583466793639,3.4115498,-3.8889265,1263.9011,1512.3749,2776.276,1263.9011,1512.3749
2.3304121576064745,3.2322087,-4.109373,1335.5463,1688.6947,3024.241,1335.5463,1688.6947
2.3752408484193666,3.0431142,-4.3206024,1404.1958,1866.7605,3270.9563,1404.1958,1866.7605
2.4201053163200186,2.844673,-4.5282693,1471.6875,2050.5222,3522.2097,1471.6875,2050.5222
2.464862452957618,2.637306,-4.7240863,1535.328,2231.6992,3767.0273,1535.328,2231.6992
2.509691143770567,2.4214487,-4.9069176,1594.7482,2407.7842,4002.5322,1594.7482,2407.7842
2.554484057495813,2.1975467,-5.0812287,1651.3993,2581.8884,4233.2876,1651.3993,2581.8884
2.599312748308705,1.9660549,-5.245587,1704.8157,2751.6184,4456.434,1704.8157,2751.6184
2.6441056620340078,1.7274346,-5.3993483,1754.7882,2915.2961,4670.0845,1754.7882,2915.2961
2.6889343528469,1.4821515,-5.5406494,1800.711,3069.8796,4870.591,1800.711,3069.8796
2.733763043659792,1.2306745,-5.675898,1844.6669,3221.5818,5066.2485,1844.6669,3221.5818
2.7785559573850946,0.97347313,-5.798307,1884.4497,3362.0364,5246.4863,1884.4497,3362.0364
2.8233846481980436,0.7110169,-5.9080377,1920.1122,3490.491,5410.603,1920.1122,3490.491
2.8682133390109357,0.44377396,-6.0120564,1953.9183,3614.4822,5568.4004,1953.9183,3614.4822
2.9130062527361815,0.1722104,-6.103229,1983.5494,3724.9402,5708.4897,1983.5494,3724.9402
2.9578349435491305,-0.10321015,-6.184221,2009.8717,3824.4585,5834.33,2009.8717,3824.4585
3.002627857274433,-0.3820265,-6.254825,2032.8181,3912.2834,5945.1016,2032.8181,3912.2834
3.0474565480872684,-0.6637798,-6.312769,2051.65,3985.1052,6036.755,2051.65,3985.1052
3.0922852389002173,-0.9480128,-6.3655605,2068.8071,4052.036,6120.843,2068.8071,4052.036
3.13707815262552,-1.2342697,-6.4056063,2081.822,4103.179,6185.001,2081.822,4103.179
3.181906843438412,-1.5220946,-6.432946,2090.7075,4138.28,6228.9873,2090.7075,4138.28
3.226735534251361,-1.8110309,-6.455211,2097.9436,4166.975,6264.919,2097.9436,4166.975
3.271528447976607,-2.1006203,-6.46463,2101.005,4179.144,6280.149,2101.005,4179.144
3.316357138789556,-2.3904014,-6.4611435,2099.8716,4174.6377,6274.5093,2099.8716,4174.6377
3.361185829602448,-2.6799095,-6.4523907,2097.0269,4163.3345,6260.3613,2097.0269,4163.3345
3.405978743327694,-2.9686754,-6.430557,2089.931,4135.206,6225.1367,2089.931,4135.206
3.4508074341406427,-3.256225,-6.398038,2079.3623,4093.4888,6172.851,2079.3623,4093.4888
3.4956003478659454,-3.542079,-6.354819,2065.3162,4038.372,6103.6885,2065.3162,4038.372
3.5404290386788375,-3.8257523,-6.2981625,2046.9028,3966.6848,6013.588,2046.9028,3966.6848
3.5852577294917864,-4.1067557,-6.235564,2026.5583,3888.226,5914.784,2026.5583,3888.226
3.6300506432170323,-4.384596,-6.159477,2001.8301,3793.9163,5795.746,2001.8301,3793.9163
3.6748793340299244,-4.658775,-6.072145,1973.4471,3687.0942,5660.5415,1973.4471,3687.0942
3.7196722477551702,-4.9287944,-5.9738197,1941.4915,3568.652,5510.1436,1941.4915,3568.652
3.764500938568119,-5.1941543,-5.8618913,1905.1146,3436.177,5341.2915,1905.1146,3436.177
3.8093296293810113,-5.454356,-5.7435656,1866.6588,3298.8545,5165.513,1866.6588,3298.8545
3.854122543106314,-5.708906,-5.612072,1823.9233,3149.5354,4973.459,1823.9233,3149.5354
3.898951233919263,-5.957314,-5.4673963,1776.9038,2989.2422,4766.146,1776.9038,2989.2422
3.943779924732155,-6.1990986,-5.3164554,1727.848,2826.4697,4554.318,1727.848,2826.4697
3.988572838457401,-6.433789,-5.153138,1674.7699,2655.4834,4330.2534,1674.7699,2655.4834
4.03340152927035,-6.660925,-4.977552,1617.7043,2477.6023,4095.3066,1617.7043,2477.6023
4.078230220083242,-6.880063,-4.7962203,1558.7716,2300.373,3859.1445,1558.7716,2300.373
4.123023133808488,-7.0907764,-4.603796,1496.2336,2119.494,3615.7275,1496.2336,2119.494
4.167851824621437,-7.2926555,-4.402172,1430.7059,1937.912,3368.618,1430.7059,1937.912
4.212644738346739,-7.4853134,-4.19247,1362.5527,1757.6805,3120.2334,1362.5527,1757.6805
4.257473429159688,-7.6683836,-3.9730268,1291.2336,1578.4941,2869.7278,1291.2336,1578.4941
4.30230211997258,-7.8415246,-3.7494047,1218.5565,1405.8035,2624.3599,1218.5565,1405.8035
4.347095033697826,-8.004419,-3.5176718,1143.2433,1237.4015,2380.6448,1143.2433,1237.4015
4.391923724510775,-8.156775,-3.2793386,1065.785,1075.4062,2141.1914,1065.785,1075.4062
4.436716638236021,-8.298327,-3.0357556,986.6206,921.58124,1908.2019,986.6206,921.58124
4.481545329048913,-8.428836,-2.7857337,905.36346,776.0312,1681.3947,905.36346,776.0312
4.526374019861862,-8.548089,-2.5334752,823.37946,641.8497,1465.2291,823.37946,641.8497
4.571166933587165,-8.655899,-2.276559,739.8817,518.27216,1258.1538,739.8817,518.27216
4.615995624400057,-8.752109,-2.0152729,654.9637,406.13248,1061.0962,654.9637,406.13248
4.660824315212949,-8.836583,-1.752892,569.6899,307.26303,876.9529,569.6899,307.26303
4.705617228938252,-8.909215,-1.487895,483.5659,221.38316,704.94904,483.5659,221.38316
4.750445919751144,-8.969921,-1.2205389,396.67514,148.97151,545.64667,396.67514,148.97151
4.795274610564093,-9.018645,-0.95314616,309.7725,90.848755,400.62125,309.7725,90.848755
4.8400675242893385,-9.055353,-0.68508697,222.65326,46.934414,269.58768,222.65326,46.934414
4.884896215102231,-9.080034,-0.4166313,135.40518,17.358166,152.76335,135.40518,17.358166
4.929689128827533,-9.092702,-0.14914629,48.472546,2.2244616,50.697006,48.472546,2.2244616
4.974517819640482,-9.093391,0.11758001,-38.213505,-1.3825059,-39.596012,38.213505,1.3825059
5.0193465104533175,-9.08216,0.3828667,-124.43168,-14.658691,-139.09036,124.43168,14.658691
5.064139424178677,-9.059088,0.64579034,-209.88187,-41.704517,-251.58638,209.88187,41.704517
5.108968114991569,-9.024274,0.9066741,-294.66907,-82.205795,-376.87488,294.66907,82.205795
5.153761028716815,-8.977839,1.1642282,-378.37418,-135.54272,-513.9169,378.37418,135.54272
5.198589719529764,-8.919925,1.4181613,-460.9024,-201.11815,-662.02057,460.9024,201.11815
5.243418410342656,-8.850691,1.6694256,-542.5633,-278.69818,-821.2615,542.5633,278.69818
5.288211324067959,-8.770317,1.9156241,-622.5778,-366.96158,-989.5394,622.5778,366.96158
5.333040014880908,-8.679001,2.156637,-700.907,-465.1083,-1166.0153,700.907,465.1083
5.377868705693743,-8.576959,2.3943465,-778.1626,-573.2895,-1351.4521,778.1626,573.2895
5.422661619419046,-8.464424,2.6255317,-853.2978,-689.3416,-1542.6394,853.2978,689.3416
5.4674903102319945,-8.341646,2.8501186,-926.2886,-812.3176,-1738.6062,926.2886,812.3176
5.512319001044887,-8.20889,3.0708702,-998.0328,-943.0243,-1941.0571,998.0328,943.0243
5.557111914770132,-8.066438,3.2837937,-1067.2329,-1078.3301,-2145.563,1067.2329,1078.3301
5.601940605583081,-7.9145837,3.4903326,-1134.3582,-1218.2422,-2352.6003,1134.3582,1218.2422
5.646733519308384,-7.753636,3.6895454,-1199.1023,-1361.2745,-2560.377,1199.1023,1361.2745
5.691562210121219,-7.583914,3.880167,-1261.0543,-1505.5696,-2766.624,1261.0543,1505.5696
5.736390900934168,-7.4057503,4.0663543,-1321.5652,-1653.5238,-2975.0889,1321.5652,1653.5238
5.781183814659471,-7.219487,4.2430315,-1378.9852,-1800.3317,-3179.317,1378.9852,1800.3317
5.826012505472363,-7.025477,4.41203,-1433.9098,-1946.6011,-3380.5107,1433.9098,1946.6011
5.870805419197609,-6.82408,4.57262,-1486.1014,-2090.8853,-3576.9868,1486.1014,2090.8853
5.915634110010558,-6.615666,4.723192,-1535.0375,-2230.8545,-3765.892,1535.0375,2230.8545
5.96046280082345,-6.400611,4.869051,-1582.4415,-2370.7656,-3953.207,1582.4415,2370.7656
6.0052557145488095,-6.179299,5.004224,-1626.3728,-2504.2256,-4130.5986,1626.3728,2504.2256
6.050084405361645,-5.95212,5.1287394,-1666.8403,-2630.397,-4297.2373,1666.8403,2630.397
6.094913096174537,-5.7194695,5.24845,-1705.7462,-2754.6226,-4460.3687,1705.7462,2754.6226
6.139706009899896,-5.4817495,5.35694,-1741.0055,-2869.6804,-4610.686,1741.0055,2869.6804
6.184534700712788,-5.2393684,5.4542274,-1772.6239,-2974.8596,-4747.4834,1772.6239,2974.8596
6.229363391525737,-4.992738,5.5465975,-1802.6442,-3076.4744,-4879.1187,1802.6442,3076.4744
6.274156305250983,-4.7422767,5.6272836,-1828.8672,-3166.6318,-4995.499,1828.8672,3166.6318
6.318984996063875,-4.488409,5.6985826,-1852.0393,-3247.3845,-5099.424,1852.0393,3247.3845
6.363777909789178,-4.231563,5.7601376,-1872.0447,-3317.9185,-5189.963,1872.0447,3317.9185
6.40860660060207,-3.9721744,5.8096776,-1888.1453,-3375.2354,-5263.381,1888.1453,3375.2354
6.453435291414962,-3.7106826,5.8539767,-1902.5425,-3426.9043,-5329.447,1902.5425,3426.9043
6.498228205140265,-3.4475331,5.885909,-1912.9204,-3464.3923,-5377.3125,1912.9204,3464.3923
6.543056895953214,-3.1831772,5.907759,-1920.0217,-3490.162,-5410.1836,1920.0217,3490.162
6.58784980967846,-2.918071,5.919354,-1923.79,-3503.8752,-5427.665,1923.79,3503.8752
6.632678500491352,-2.6526752,5.918256,-1923.4331,-3502.575,-5426.008,1923.4331,3502.575
6.677507191304301,-2.3874557,5.911434,-1921.2161,-3494.5054,-5415.7217,1921.2161,3494.5054
6.722300105029547,-2.1228826,5.891745,-1914.8171,-3471.2659,-5386.083,1914.8171,3471.2659
6.767128795842439,-1.8594291,5.8590884,-1904.2037,-3432.8916,-5337.095,1904.2037,3432.8916
6.811957486655388,-1.5975721,5.820442,-1891.6437,-3387.7546,-5279.3984,1891.6437,3387.7546
6.85675040038069,-1.3377903,5.7688184,-1874.866,-3327.9265,-5202.7925,1874.866,3327.9265
6.901579091193639,-1.0805635,5.7041335,-1853.8434,-3253.7139,-5107.557,1853.8434,3253.7139
6.946407782006531,-0.82637256,5.633283,-1830.817,-3173.388,-5004.205,1830.817,3173.388
6.991200695731777,-0.575697,5.549566,-1803.6089,-3079.768,-4883.377,1803.6089,3079.768
7.036029386544726,-0.32901493,5.455072,-1772.8983,-2975.781,-4748.679,1772.8983,2975.781
7.080822300269972,-0.0868013,5.350185,-1738.81,-2862.4478,-4601.258,1738.81,2862.4478
7.125650991082864,0.15047312,5.232635,-1700.6063,-2738.0469,-4438.6533,1700.6063,2738.0469
7.170479681895813,0.38234305,5.10895,-1660.4088,-2610.1372,-4270.546,1660.4088,2610.1372
7.215272595621116,0.60835,4.973195,-1616.2885,-2473.267,-4089.5557,1616.2885,2473.267
7.260101286434008,0.8280436,4.827269,-1568.8624,-2330.2527,-3899.1152,1568.8624,2330.2527
7.304894200159254,1.0409828,4.6718636,-1518.3557,-2182.6309,-3700.9866,1518.3557,2182.6309
7.3497228909722025,1.2467376,4.505005,-1464.1266,-2029.507,-3493.6335,1464.1266,2029.507
7.394551581785095,1.4448898,4.332561,-1408.0823,-1877.1085,-3285.191,1408.0823,1877.1085
7.4393444955103405,1.6350349,4.1496716,-1348.6433,-1721.9774,-3070.6206,1348.6433,1721.9774
7.484173186323289,1.8167832,3.9564652,-1285.8512,-1565.3617,-2851.213,1285.8512,1565.3617
7.5290018771361815,1.9897612,3.758276,-1221.4397,-1412.4639,-2633.9036,1221.4397,1412.4639
7.573794790861484,2.153613,3.5510209,-1154.0818,-1260.9749,-2415.0566,1154.0818,1260.9749
7.618623481674433,2.3080018,3.334889,-1083.8389,-1112.1484,-2195.9873,1083.8389,1112.1484
7.663452172487325,2.4526105,3.114594,-1012.24304,-970.0696,-1982.3126,1012.24304,970.0696
7.708245086212571,2.5871446,2.8869174,-938.24817,-833.4292,-1771.6774,938.24817,833.4292
7.75307377702552,2.7113323,2.6530757,-862.2496,-703.88104,-1566.1306,862.2496,703.88104
7.797866690750766,2.824926,2.4143813,-784.6739,-582.9237,-1367.5977,784.6739,582.9237
7.842695381563658,2.9277043,2.1698904,-705.21436,-470.84244,-1176.0568,705.21436,470.84244
7.887524072376607,3.0194726,1.9231001,-625.0075,-369.83142,-994.8389,625.0075,369.83142
7.93231698610191,3.1000645,1.6723641,-543.5183,-279.68018,-823.1985,543.5183,279.68018
7.9771456769148585,3.1693435,1.4185117,-461.01633,-201.21756,-662.2339,461.01633,201.21756
8.021938590640104,3.227203,1.1630336,-377.98593,-135.26471,-513.2506,377.98593,135.26471
8.066767281452996,3.2735672,0.90556234,-294.30777,-82.00432,-376.31207,294.30777,82.00432
8.111595972265945,3.3083932,0.6482076,-210.66747,-42.01731,-252.68478,210.66747,42.01731
8.156388885991191,3.3316698,0.39091927,-127.04876,-15.281787,-142.33055,127.04876,15.281787
8.201217576804083,3.3434188,0.13411503,-43.587383,-1.798684,-45.386066,43.587383,1.798684
8.246046267617032,3.3436942,-0.12101121,39.328644,1.4643713,40.793015,39.328644,1.4643713
8.290839181342335,3.3325827,-0.37359992,121.419975,13.95769,135.37767,121.419975,13.95769
8.335667872155227,3.3102026,-0.6232517,202.5568,38.844265,241.40106,202.5568,38.844265
8.38049656296812,3.2767036,-0.8697327,282.66312,75.64349,358.3066,282.66312,75.64349
8.425289476693422,3.2322645,-1.1113619,361.1926,123.51252,484.7051,361.1926,123.51252
8.470118167506314,3.177093,-1.3484384,438.24246,181.82861,620.07104,438.24246,181.82861
8.51491108123156,3.1114237,-1.5796396,513.3829,249.52612,762.909,513.3829,249.52612
8.559739772044509,3.035515,-1.8043675,586.41943,325.57422,911.99365,586.41943,325.57422
8.6045684628574,2.9496489,-2.024017,657.80554,409.66452,1067.4701,657.80554,409.66452
8.64936137658276,2.8541272,-2.2357633,726.62305,499.86374,1226.4868,726.62305,499.86374
8.694190067395652,2.7492688,-2.4394875,792.83344,595.1099,1387.9434,792.83344,595.1099
8.739018758208488,2.635409,-2.637549,857.2034,695.6664,1552.8699,857.2034,695.6664
8.783811671933847,2.5128944,-2.8265598,918.63196,798.94403,1717.5759,918.63196,798.94403
8.82864036274674,2.3820817,-3.007819,977.54114,904.69745,1882.2385,977.54114,904.69745
8.873433276471985,2.2433352,-3.1806204,1033.7017,1011.63464,2045.3363,1033.7017,1011.63464
8.918261967284934,2.0970235,-3.3440351,1086.8114,1118.2571,2205.0684,1086.8114,1118.2571
8.963090658097826,1.9435178,-3.5018327,1138.0956,1226.2832,2364.379,1138.0956,1226.2832
9.007883571823129,1.7831892,-3.6498454,1186.1997,1332.1371,2518.337,1186.1997,1332.1371
9.052712262636021,1.6164078,-3.7883003,1231.1976,1435.1218,2666.3193,1231.1976,1435.1218
9.097540953448913,1.4435401,-3.921643,1274.5339,1537.9285,2812.4624,1274.5339,1537.9285
9.142333867174216,1.2649485,-4.0453005,1314.7227,1636.4457,2951.1685,1314.7227,1636.4457
9.187162557987165,1.0809896,-4.1595516,1351.8542,1730.187,3082.0413,1351.8542,1730.187
9.231991248800057,0.89201397,-4.267621,1386.9768,1821.259,3208.2358,1386.9768,1821.259
9.276819939613006,0.69836587,-4.3698683,1420.2072,1909.5748,3329.782,1420.2072,1909.5748
9.321612853338252,0.50038296,-4.4646482,1451.0106,1993.3083,3444.3188,1451.0106,1993.3083
9.366405767063554,0.29839665,-4.5485425,1478.2764,2068.9238,3547.2002,1478.2764,2068.9238
9.41123445787639,0.092732474,-4.6252255,1503.1982,2139.2712,3642.4695,1503.1982,2139.2712
9.456063148689339,-0.11628895,-4.698491,1527.0096,2207.582,3734.5918,1527.0096,2207.582
9.500856062414641,-0.32835126,-4.7628045,1547.9115,2268.4307,3816.3423,1547.9115,2268.4307
9.545684753227533,-0.5431412,-4.8202457,1566.5798,2323.4768,3890.0566,1566.5798,2323.4768
9.59047766695278,-0.76034737,-4.870665,1582.9662,2372.338,3955.3042,1582.9662,2372.338
9.635306357765728,-0.97965956,-4.9122496,1596.4811,2413.0195,4009.5005,1596.4811,2413.0195
9.680135048578677,-1.2007668,-4.9508014,1609.0105,2451.0435,4060.054,1609.0105,2451.0435
9.72492796230398,-1.423357,-4.98036,1618.6171,2480.3987,4099.0156,1618.6171,2480.3987
9.769756653116815,-1.6471155,-5.0008907,1625.2894,2500.8909,4126.18,1625.2894,2500.8909
9.814585343929764,-1.8717238,-5.018263,1630.9354,2518.2961,4149.2314,1630.9354,2518.2961
9.859378257655067,-2.0968597,-5.026377,1633.5726,2526.4468,4160.0195,1633.5726,2526.4468
9.904206948467959,-2.3221958,-5.0251255,1633.1658,2525.1885,4158.3545,1633.1658,2525.1885
9.949035639280908,-2.5473993,-5.020398,1631.6294,2520.4397,4152.0693,1631.6294,2520.4397
9.993828553006153,-2.7721322,-5.006068,1626.9722,2506.0718,4133.044,1626.9722,2506.0718
